# Wavelength (um) 	 Transit depth
0.2000200020 	 0.0144495325
0.2000600180 	 0.0144494363
0.2001000500 	 0.0144493550
0.2001400981 	 0.0144492625
0.2001801622 	 0.0144491826
0.2002202423 	 0.0144490945
0.2002603384 	 0.0144489956
0.2003004507 	 0.0144489219
0.2003405790 	 0.0144488347
0.2003807234 	 0.0144487431
0.2004208839 	 0.0144486554
0.2004610604 	 0.0144485522
0.2005012531 	 0.0144484706
0.2005414619 	 0.0144483902
0.2005816869 	 0.0144482969
0.2006219280 	 0.0144482152
0.2006621852 	 0.0144481156
0.2007024586 	 0.0144480535
0.2007427482 	 0.0144479401
0.2007830539 	 0.0144478591
0.2008233758 	 0.0144477619
0.2008637140 	 0.0144476787
0.2009040683 	 0.0144476083
0.2009444389 	 0.0144475008
0.2009848257 	 0.0144474055
0.2010252287 	 0.0144473404
0.2010656479 	 0.0144472384
0.2011060835 	 0.0144471560
0.2011465353 	 0.0144470759
0.2011870033 	 0.0144469692
0.2012274877 	 0.0144468804
0.2012679883 	 0.0144467973
0.2013085053 	 0.0144467141
0.2013490386 	 0.0144466292
0.2013895882 	 0.0144465300
0.2014301541 	 0.0144464390
0.2014707364 	 0.0144463745
0.2015113350 	 0.0144462691
0.2015519500 	 0.0144461842
0.2015925814 	 0.0144461017
0.2016332292 	 0.0144460070
0.2016738933 	 0.0144459054
0.2017145739 	 0.0144458242
0.2017552709 	 0.0144457464
0.2017959843 	 0.0144456585
0.2018367141 	 0.0144455656
0.2018774604 	 0.0144454740
0.2019182231 	 0.0144453929
0.2019590023 	 0.0144452954
0.2019997980 	 0.0144452073
0.2020406102 	 0.0144451220
0.2020814388 	 0.0144450393
0.2021222840 	 0.0144449427
0.2021631457 	 0.0144448652
0.2022040239 	 0.0144447731
0.2022449186 	 0.0144446803
0.2022858299 	 0.0144445894
0.2023267577 	 0.0144445109
0.2023677021 	 0.0144444057
0.2024086631 	 0.0144443348
0.2024496407 	 0.0144442338
0.2024906348 	 0.0144441435
0.2025316456 	 0.0144440465
0.2025726730 	 0.0144439714
0.2026137169 	 0.0144438913
0.2026547776 	 0.0144437731
0.2026958549 	 0.0144436972
0.2027369488 	 0.0144436097
0.2027780594 	 0.0144435205
0.2028191867 	 0.0144434374
0.2028603307 	 0.0144433523
0.2029014913 	 0.0144432624
0.2029426687 	 0.0144431791
0.2029838628 	 0.0144430816
0.2030250736 	 0.0144429898
0.2030663011 	 0.0144429080
0.2031075455 	 0.0144428179
0.2031488065 	 0.0144427241
0.2031900843 	 0.0144426360
0.2032313789 	 0.0144425467
0.2032726903 	 0.0144424593
0.2033140185 	 0.0144423736
0.2033553635 	 0.0144422856
0.2033967253 	 0.0144421838
0.2034381040 	 0.0144420912
0.2034794994 	 0.0144420243
0.2035209118 	 0.0144419187
0.2035623410 	 0.0144418406
0.2036037870 	 0.0144417502
0.2036452500 	 0.0144416590
0.2036867298 	 0.0144415762
0.2037282266 	 0.0144414722
0.2037697402 	 0.0144413977
0.2038112708 	 0.0144413143
0.2038528183 	 0.0144412220
0.2038943827 	 0.0144411255
0.2039359641 	 0.0144410267
0.2039775625 	 0.0144409423
0.2040191778 	 0.0144408492
0.2040608101 	 0.0144407725
0.2041024594 	 0.0144406751
0.2041441257 	 0.0144405856
0.2041858091 	 0.0144404942
0.2042275095 	 0.0144404123
0.2042692268 	 0.0144403242
0.2043109613 	 0.0144402361
0.2043527128 	 0.0144401464
0.2043944813 	 0.0144400580
0.2044362670 	 0.0144399742
0.2044780697 	 0.0144398763
0.2045198896 	 0.0144397938
0.2045617265 	 0.0144396995
0.2046035806 	 0.0144396105
0.2046454518 	 0.0144395225
0.2046873401 	 0.0144394383
0.2047292456 	 0.0144393434
0.2047711682 	 0.0144392653
0.2048131080 	 0.0144391513
0.2048550650 	 0.0144390725
0.2048970392 	 0.0144389907
0.2049390306 	 0.0144388969
0.2049810392 	 0.0144388144
0.2050230651 	 0.0144387157
0.2050651082 	 0.0144386328
0.2051071685 	 0.0144385355
0.2051492461 	 0.0144384609
0.2051913409 	 0.0144383560
0.2052334530 	 0.0144382732
0.2052755825 	 0.0144381728
0.2053177292 	 0.0144380914
0.2053598932 	 0.0144380080
0.2054020746 	 0.0144379145
0.2054442732 	 0.0144378223
0.2054864893 	 0.0144377351
0.2055287226 	 0.0144376432
0.2055709734 	 0.0144375618
0.2056132415 	 0.0144374794
0.2056555270 	 0.0144373727
0.2056978299 	 0.0144372882
0.2057401502 	 0.0144371999
0.2057824879 	 0.0144371199
0.2058248431 	 0.0144370196
0.2058672156 	 0.0144369419
0.2059096057 	 0.0144368378
0.2059520132 	 0.0144367496
0.2059944381 	 0.0144366646
0.2060368806 	 0.0144365724
0.2060793405 	 0.0144364814
0.2061218180 	 0.0144364046
0.2061643130 	 0.0144363025
0.2062068254 	 0.0144362264
0.2062493555 	 0.0144361242
0.2062919030 	 0.0144360342
0.2063344682 	 0.0144359409
0.2063770509 	 0.0144358600
0.2064196511 	 0.0144357685
0.2064622690 	 0.0144356788
0.2065049045 	 0.0144355828
0.2065475576 	 0.0144355022
0.2065902283 	 0.0144354083
0.2066329166 	 0.0144353038
0.2066756226 	 0.0144352281
0.2067183462 	 0.0144351379
0.2067610876 	 0.0144350459
0.2068038466 	 0.0144349503
0.2068466232 	 0.0144348776
0.2068894176 	 0.0144347800
0.2069322297 	 0.0144346845
0.2069750595 	 0.0144345958
0.2070179071 	 0.0144345102
0.2070607723 	 0.0144344153
0.2071036554 	 0.0144343291
0.2071465562 	 0.0144342302
0.2071894748 	 0.0144341499
0.2072324111 	 0.0144340672
0.2072753653 	 0.0144339743
0.2073183373 	 0.0144338886
0.2073613271 	 0.0144338001
0.2074043348 	 0.0144336864
0.2074473602 	 0.0144336118
0.2074904036 	 0.0144335122
0.2075334648 	 0.0144334332
0.2075765438 	 0.0144333532
0.2076196408 	 0.0144332525
0.2076627557 	 0.0144331728
0.2077058885 	 0.0144330595
0.2077490392 	 0.0144329832
0.2077922078 	 0.0144328979
0.2078353944 	 0.0144327912
0.2078785989 	 0.0144327086
0.2079218214 	 0.0144326230
0.2079650619 	 0.0144325194
0.2080083203 	 0.0144324486
0.2080515968 	 0.0144323501
0.2080948913 	 0.0144322574
0.2081382038 	 0.0144321716
0.2081815343 	 0.0144320851
0.2082248829 	 0.0144319756
0.2082682495 	 0.0144319030
0.2083116342 	 0.0144318128
0.2083550370 	 0.0144317305
0.2083984578 	 0.0144316306
0.2084418968 	 0.0144315395
0.2084853539 	 0.0144314403
0.2085288291 	 0.0144313470
0.2085723224 	 0.0144312715
0.2086158339 	 0.0144311775
0.2086593636 	 0.0144310864
0.2087029114 	 0.0144309808
0.2087464774 	 0.0144309077
0.2087900616 	 0.0144308243
0.2088336640 	 0.0144307066
0.2088772846 	 0.0144306289
0.2089209234 	 0.0144305546
0.2089645805 	 0.0144304540
0.2090082558 	 0.0144303555
0.2090519494 	 0.0144302917
0.2090956613 	 0.0144301797
0.2091393914 	 0.0144301112
0.2091831398 	 0.0144299860
0.2092269066 	 0.0144299290
0.2092706916 	 0.0144298056
0.2093144950 	 0.0144297333
0.2093583168 	 0.0144296509
0.2094021568 	 0.0144295669
0.2094460153 	 0.0144294472
0.2094898921 	 0.0144293548
0.2095337873 	 0.0144292922
0.2095777009 	 0.0144291690
0.2096216329 	 0.0144290985
0.2096655834 	 0.0144290145
0.2097095523 	 0.0144289326
0.2097535396 	 0.0144288281
0.2097975454 	 0.0144287370
0.2098415696 	 0.0144286448
0.2098856123 	 0.0144285415
0.2099296736 	 0.0144284844
0.2099737533 	 0.0144283650
0.2100178515 	 0.0144282830
0.2100619683 	 0.0144282027
0.2101061036 	 0.0144280953
0.2101502574 	 0.0144280004
0.2101944299 	 0.0144279179
0.2102386208 	 0.0144278368
0.2102828304 	 0.0144277535
0.2103270586 	 0.0144276425
0.2103713054 	 0.0144275474
0.2104155708 	 0.0144274782
0.2104598548 	 0.0144273631
0.2105041575 	 0.0144272819
0.2105484788 	 0.0144271767
0.2105928188 	 0.0144271036
0.2106371775 	 0.0144270276
0.2106815548 	 0.0144269407
0.2107259509 	 0.0144268209
0.2107703657 	 0.0144267347
0.2108147992 	 0.0144266491
0.2108592515 	 0.0144265800
0.2109037224 	 0.0144264539
0.2109482122 	 0.0144263822
0.2109927208 	 0.0144262691
0.2110372481 	 0.0144262026
0.2110817942 	 0.0144261042
0.2111263591 	 0.0144260252
0.2111709429 	 0.0144259234
0.2112155455 	 0.0144258266
0.2112601669 	 0.0144257227
0.2113048072 	 0.0144256587
0.2113494663 	 0.0144255607
0.2113941444 	 0.0144254535
0.2114388413 	 0.0144253655
0.2114835572 	 0.0144252966
0.2115282919 	 0.0144251752
0.2115730456 	 0.0144251125
0.2116178182 	 0.0144249936
0.2116626098 	 0.0144249157
0.2117074204 	 0.0144248385
0.2117522499 	 0.0144247401
0.2117970984 	 0.0144246443
0.2118419659 	 0.0144245769
0.2118868524 	 0.0144244868
0.2119317580 	 0.0144243593
0.2119766826 	 0.0144242864
0.2120216262 	 0.0144241959
0.2120665889 	 0.0144241161
0.2121115707 	 0.0144240139
0.2121565716 	 0.0144239192
0.2122015915 	 0.0144238234
0.2122466306 	 0.0144237416
0.2122916888 	 0.0144236527
0.2123367661 	 0.0144235605
0.2123818626 	 0.0144234591
0.2124269782 	 0.0144233725
0.2124721130 	 0.0144232935
0.2125172670 	 0.0144231825
0.2125624402 	 0.0144230982
0.2126076326 	 0.0144230038
0.2126528442 	 0.0144229184
0.2126980751 	 0.0144228176
0.2127433252 	 0.0144227387
0.2127885945 	 0.0144226287
0.2128338831 	 0.0144225677
0.2128791911 	 0.0144224447
0.2129245183 	 0.0144223635
0.2129698648 	 0.0144222793
0.2130152306 	 0.0144222054
0.2130606157 	 0.0144220740
0.2131060203 	 0.0144219869
0.2131514441 	 0.0144219231
0.2131968873 	 0.0144218218
0.2132423499 	 0.0144217387
0.2132878319 	 0.0144216304
0.2133333333 	 0.0144215360
0.2133788542 	 0.0144214466
0.2134243944 	 0.0144213702
0.2134699541 	 0.0144212562
0.2135155333 	 0.0144212005
0.2135611319 	 0.0144210769
0.2136067500 	 0.0144210014
0.2136523876 	 0.0144209022
0.2136980447 	 0.0144208015
0.2137437213 	 0.0144207235
0.2137894174 	 0.0144206410
0.2138351331 	 0.0144205558
0.2138808684 	 0.0144204524
0.2139266232 	 0.0144203525
0.2139723976 	 0.0144202724
0.2140181915 	 0.0144201858
0.2140640051 	 0.0144200638
0.2141098383 	 0.0144199751
0.2141556912 	 0.0144199058
0.2142015637 	 0.0144198167
0.2142474558 	 0.0144197127
0.2142933676 	 0.0144196236
0.2143392991 	 0.0144195387
0.2143852503 	 0.0144194430
0.2144312212 	 0.0144193632
0.2144772118 	 0.0144192528
0.2145232221 	 0.0144191711
0.2145692522 	 0.0144190927
0.2146153021 	 0.0144189726
0.2146613717 	 0.0144188926
0.2147074611 	 0.0144187856
0.2147535703 	 0.0144186929
0.2147996993 	 0.0144186184
0.2148458481 	 0.0144185076
0.2148920168 	 0.0144184386
0.2149382053 	 0.0144183155
0.2149844136 	 0.0144182527
0.2150306419 	 0.0144181451
0.2150768900 	 0.0144180765
0.2151231580 	 0.0144179917
0.2151694459 	 0.0144178719
0.2152157538 	 0.0144178000
0.2152620816 	 0.0144176901
0.2153084293 	 0.0144175824
0.2153547970 	 0.0144175357
0.2154011847 	 0.0144174046
0.2154475924 	 0.0144173400
0.2154940200 	 0.0144172264
0.2155404677 	 0.0144171571
0.2155869354 	 0.0144170210
0.2156334232 	 0.0144169755
0.2156799310 	 0.0144168648
0.2157264588 	 0.0144167612
0.2157730068 	 0.0144166697
0.2158195748 	 0.0144166087
0.2158661630 	 0.0144164912
0.2159127712 	 0.0144164198
0.2159593996 	 0.0144163101
0.2160060482 	 0.0144162377
0.2160527169 	 0.0144161192
0.2160994057 	 0.0144160313
0.2161461148 	 0.0144159625
0.2161928440 	 0.0144158429
0.2162395935 	 0.0144157539
0.2162863631 	 0.0144156574
0.2163331531 	 0.0144155786
0.2163799632 	 0.0144155050
0.2164267936 	 0.0144153853
0.2164736443 	 0.0144152894
0.2165205153 	 0.0144151932
0.2165674066 	 0.0144151293
0.2166143182 	 0.0144150291
0.2166612501 	 0.0144149348
0.2167082024 	 0.0144148377
0.2167551750 	 0.0144147302
0.2168021680 	 0.0144146637
0.2168491814 	 0.0144145575
0.2168962152 	 0.0144144716
0.2169432693 	 0.0144143944
0.2169903439 	 0.0144142713
0.2170374390 	 0.0144141966
0.2170845544 	 0.0144140884
0.2171316904 	 0.0144139954
0.2171788468 	 0.0144139404
0.2172260237 	 0.0144138116
0.2172732211 	 0.0144137478
0.2173204390 	 0.0144136492
0.2173676774 	 0.0144135503
0.2174149364 	 0.0144134540
0.2174622159 	 0.0144133713
0.2175095160 	 0.0144132829
0.2175568367 	 0.0144131730
0.2176041780 	 0.0144130766
0.2176515399 	 0.0144130019
0.2176989224 	 0.0144129175
0.2177463255 	 0.0144128159
0.2177937493 	 0.0144127093
0.2178411938 	 0.0144126296
0.2178886589 	 0.0144125127
0.2179361447 	 0.0144124430
0.2179836512 	 0.0144123347
0.2180311785 	 0.0144122382
0.2180787264 	 0.0144121661
0.2181262951 	 0.0144120632
0.2181738846 	 0.0144119564
0.2182214948 	 0.0144119021
0.2182691258 	 0.0144117813
0.2183167776 	 0.0144116931
0.2183644503 	 0.0144116082
0.2184121437 	 0.0144114846
0.2184598580 	 0.0144114244
0.2185075931 	 0.0144113420
0.2185553491 	 0.0144112194
0.2186031260 	 0.0144111410
0.2186509238 	 0.0144110486
0.2186987425 	 0.0144109640
0.2187465821 	 0.0144108659
0.2187944426 	 0.0144107564
0.2188423241 	 0.0144106755
0.2188902266 	 0.0144105655
0.2189381500 	 0.0144105078
0.2189860944 	 0.0144103880
0.2190340598 	 0.0144103027
0.2190820462 	 0.0144102287
0.2191300537 	 0.0144101313
0.2191780822 	 0.0144100310
0.2192261317 	 0.0144099478
0.2192742024 	 0.0144098334
0.2193222941 	 0.0144097403
0.2193704069 	 0.0144096361
0.2194185409 	 0.0144095675
0.2194666959 	 0.0144094534
0.2195148721 	 0.0144093850
0.2195630695 	 0.0144092862
0.2196112880 	 0.0144092003
0.2196595277 	 0.0144091158
0.2197077886 	 0.0144089904
0.2197560708 	 0.0144089220
0.2198043741 	 0.0144088015
0.2198526987 	 0.0144087193
0.2199010445 	 0.0144086477
0.2199494116 	 0.0144085269
0.2199978000 	 0.0144084664
0.2200462097 	 0.0144083388
0.2200946407 	 0.0144082841
0.2201430930 	 0.0144081512
0.2201915667 	 0.0144080855
0.2202400617 	 0.0144079600
0.2202885780 	 0.0144078833
0.2203371158 	 0.0144077948
0.2203856749 	 0.0144077014
0.2204342555 	 0.0144076142
0.2204828575 	 0.0144075120
0.2205314809 	 0.0144074476
0.2205801257 	 0.0144073139
0.2206287921 	 0.0144072477
0.2206774799 	 0.0144071411
0.2207261892 	 0.0144070654
0.2207749200 	 0.0144069566
0.2208236723 	 0.0144068756
0.2208724462 	 0.0144067573
0.2209212416 	 0.0144066840
0.2209700586 	 0.0144065744
0.2210188971 	 0.0144064943
0.2210677573 	 0.0144063980
0.2211166390 	 0.0144063095
0.2211655424 	 0.0144062033
0.2212144674 	 0.0144061122
0.2212634141 	 0.0144060112
0.2213123824 	 0.0144059241
0.2213613724 	 0.0144058401
0.2214103842 	 0.0144057458
0.2214594176 	 0.0144056416
0.2215084727 	 0.0144055550
0.2215575496 	 0.0144054598
0.2216066482 	 0.0144053776
0.2216557686 	 0.0144052803
0.2217049108 	 0.0144051953
0.2217540747 	 0.0144050708
0.2218032605 	 0.0144049952
0.2218524681 	 0.0144049164
0.2219016975 	 0.0144047984
0.2219509488 	 0.0144047259
0.2220002220 	 0.0144046209
0.2220495170 	 0.0144045389
0.2220988340 	 0.0144044294
0.2221481728 	 0.0144043465
0.2221975336 	 0.0144042552
0.2222469163 	 0.0144041730
0.2222963210 	 0.0144040585
0.2223457476 	 0.0144039773
0.2223951963 	 0.0144038870
0.2224446669 	 0.0144037661
0.2224941595 	 0.0144037054
0.2225436742 	 0.0144036041
0.2225932109 	 0.0144034867
0.2226427697 	 0.0144034125
0.2226923505 	 0.0144033366
0.2227419535 	 0.0144032246
0.2227915785 	 0.0144031376
0.2228412256 	 0.0144030213
0.2228908949 	 0.0144029372
0.2229405863 	 0.0144028526
0.2229902999 	 0.0144027546
0.2230400357 	 0.0144026482
0.2230897936 	 0.0144025465
0.2231395738 	 0.0144024789
0.2231893762 	 0.0144023693
0.2232392008 	 0.0144022871
0.2232890477 	 0.0144021844
0.2233389168 	 0.0144020941
0.2233888082 	 0.0144020049
0.2234387219 	 0.0144019238
0.2234886580 	 0.0144018058
0.2235386163 	 0.0144017061
0.2235885970 	 0.0144016152
0.2236386000 	 0.0144015436
0.2236886254 	 0.0144014482
0.2237386732 	 0.0144013522
0.2237887434 	 0.0144012457
0.2238388360 	 0.0144011783
0.2238889511 	 0.0144010694
0.2239390886 	 0.0144009781
0.2239892485 	 0.0144008933
0.2240394309 	 0.0144007787
0.2240896358 	 0.0144006978
0.2241398633 	 0.0144005829
0.2241901132 	 0.0144005162
0.2242403857 	 0.0144003931
0.2242906807 	 0.0144003130
0.2243409983 	 0.0144001991
0.2243913385 	 0.0144001289
0.2244417013 	 0.0144000356
0.2244920867 	 0.0143999486
0.2245424947 	 0.0143998327
0.2245929253 	 0.0143997462
0.2246433786 	 0.0143996275
0.2246938546 	 0.0143995566
0.2247443533 	 0.0143994811
0.2247948747 	 0.0143993812
0.2248454188 	 0.0143992848
0.2248959856 	 0.0143991815
0.2249465752 	 0.0143991079
0.2249971875 	 0.0143989778
0.2250478227 	 0.0143989074
0.2250984806 	 0.0143987996
0.2251491613 	 0.0143987338
0.2251998649 	 0.0143986274
0.2252505913 	 0.0143985115
0.2253013405 	 0.0143984215
0.2253521127 	 0.0143983409
0.2254029077 	 0.0143982315
0.2254537256 	 0.0143981316
0.2255045665 	 0.0143980647
0.2255554302 	 0.0143979500
0.2256063170 	 0.0143978606
0.2256572267 	 0.0143977762
0.2257081593 	 0.0143976768
0.2257591150 	 0.0143975936
0.2258100937 	 0.0143975012
0.2258610954 	 0.0143974033
0.2259121202 	 0.0143972920
0.2259631680 	 0.0143972039
0.2260142389 	 0.0143971137
0.2260653329 	 0.0143970317
0.2261164500 	 0.0143969182
0.2261675902 	 0.0143968339
0.2262187535 	 0.0143967151
0.2262699400 	 0.0143966503
0.2263211497 	 0.0143965596
0.2263723826 	 0.0143964496
0.2264236386 	 0.0143963519
0.2264749179 	 0.0143962683
0.2265262204 	 0.0143961575
0.2265775462 	 0.0143960746
0.2266288952 	 0.0143959755
0.2266802675 	 0.0143958751
0.2267316631 	 0.0143958033
0.2267830820 	 0.0143956866
0.2268345242 	 0.0143955817
0.2268859898 	 0.0143955021
0.2269374787 	 0.0143954238
0.2269889910 	 0.0143953064
0.2270405267 	 0.0143952227
0.2270920858 	 0.0143951381
0.2271436684 	 0.0143950407
0.2271952743 	 0.0143949436
0.2272469038 	 0.0143948672
0.2272985567 	 0.0143947307
0.2273502330 	 0.0143946487
0.2274019329 	 0.0143945654
0.2274536563 	 0.0143944866
0.2275054032 	 0.0143943852
0.2275571737 	 0.0143942690
0.2276089678 	 0.0143941809
0.2276607854 	 0.0143940903
0.2277126267 	 0.0143939832
0.2277644915 	 0.0143939143
0.2278163800 	 0.0143938023
0.2278682921 	 0.0143936987
0.2279202279 	 0.0143936291
0.2279721874 	 0.0143935067
0.2280241706 	 0.0143934442
0.2280761774 	 0.0143933207
0.2281282081 	 0.0143932273
0.2281802624 	 0.0143931430
0.2282323405 	 0.0143930456
0.2282844424 	 0.0143929476
0.2283365681 	 0.0143928646
0.2283887176 	 0.0143927671
0.2284408909 	 0.0143926476
0.2284930881 	 0.0143925670
0.2285453091 	 0.0143924954
0.2285975540 	 0.0143923636
0.2286498228 	 0.0143923045
0.2287021155 	 0.0143921744
0.2287544321 	 0.0143921164
0.2288067727 	 0.0143919970
0.2288591372 	 0.0143919061
0.2289115257 	 0.0143918235
0.2289639382 	 0.0143917232
0.2290163747 	 0.0143916369
0.2290688352 	 0.0143915339
0.2291213197 	 0.0143914288
0.2291738283 	 0.0143913405
0.2292263610 	 0.0143912589
0.2292789178 	 0.0143911423
0.2293314987 	 0.0143910579
0.2293841037 	 0.0143909673
0.2294367328 	 0.0143908811
0.2294893861 	 0.0143907661
0.2295420636 	 0.0143906620
0.2295947652 	 0.0143905810
0.2296474911 	 0.0143904842
0.2297002412 	 0.0143903948
0.2297530155 	 0.0143902914
0.2298058141 	 0.0143902014
0.2298586369 	 0.0143901079
0.2299114841 	 0.0143900009
0.2299643555 	 0.0143899051
0.2300172513 	 0.0143898242
0.2300701714 	 0.0143897338
0.2301231159 	 0.0143896347
0.2301760847 	 0.0143895252
0.2302290779 	 0.0143894409
0.2302820956 	 0.0143893552
0.2303351376 	 0.0143892564
0.2303882041 	 0.0143891432
0.2304412951 	 0.0143890449
0.2304944105 	 0.0143889576
0.2305475504 	 0.0143888769
0.2306007149 	 0.0143887647
0.2306539038 	 0.0143886826
0.2307071173 	 0.0143885806
0.2307603554 	 0.0143884776
0.2308136180 	 0.0143883776
0.2308669052 	 0.0143882814
0.2309202171 	 0.0143881998
0.2309735535 	 0.0143880975
0.2310269146 	 0.0143880043
0.2310803004 	 0.0143879328
0.2311337109 	 0.0143878339
0.2311871460 	 0.0143877128
0.2312406059 	 0.0143876294
0.2312940904 	 0.0143875415
0.2313475998 	 0.0143874416
0.2314011339 	 0.0143873304
0.2314546927 	 0.0143872565
0.2315082764 	 0.0143871482
0.2315618849 	 0.0143870519
0.2316155182 	 0.0143869718
0.2316691764 	 0.0143868803
0.2317228595 	 0.0143867679
0.2317765674 	 0.0143866867
0.2318303002 	 0.0143865679
0.2318840580 	 0.0143864974
0.2319378407 	 0.0143863861
0.2319916483 	 0.0143862992
0.2320454809 	 0.0143862135
0.2320993385 	 0.0143860944
0.2321532211 	 0.0143860083
0.2322071288 	 0.0143859134
0.2322610614 	 0.0143858148
0.2323150192 	 0.0143857091
0.2323690020 	 0.0143856441
0.2324230099 	 0.0143855200
0.2324770429 	 0.0143854466
0.2325311010 	 0.0143853453
0.2325851843 	 0.0143852523
0.2326392928 	 0.0143851627
0.2326934264 	 0.0143850543
0.2327475852 	 0.0143849620
0.2328017693 	 0.0143848711
0.2328559786 	 0.0143847593
0.2329102131 	 0.0143846642
0.2329644729 	 0.0143845795
0.2330187580 	 0.0143844867
0.2330730684 	 0.0143843795
0.2331274041 	 0.0143842861
0.2331817652 	 0.0143842119
0.2332361516 	 0.0143840925
